Datetime,valueBVP
53:08.5,84.62213
53:08.5,82.99329
53:08.5,80.80249
53:08.5,77.52435
53:08.5,72.84167
53:08.5,66.90332
53:08.6,60.27777
53:08.6,53.75958
53:08.6,48.04041
53:08.6,43.32605
53:08.6,39.26074
53:08.6,34.98584
53:08.7,29.5282
53:08.7,22.21704
53:08.7,13.00146
53:08.7,2.467407
53:08.7,-8.37146
53:08.7,-18.44299
53:08.8,-26.99841
53:08.8,-33.7854
53:08.8,-39.01953
53:08.8,-43.15576
53:08.8,-46.66675
53:08.8,-49.8877
53:08.8,-52.93689
53:08.9,-55.8512
53:08.9,-58.66394
53:08.9,-61.42566
53:08.9,-64.15613
53:08.9,-66.71655
53:08.9,-68.80945
53:09.0,-70.04871
53:09.0,-70.11816
53:09.0,-68.93689
53:09.0,-66.74585
53:09.0,-63.97925
53:09.0,-61.12915
53:09.0,-58.4845
53:09.1,-56.10315
53:09.1,-53.8208
53:09.1,-51.39636
53:09.1,-48.72815
53:09.1,-45.92542
53:09.1,-43.35913
53:09.2,-41.47778
53:09.2,-40.5752
53:09.2,-40.51611
53:09.2,-40.7229
53:09.2,-40.27734
53:09.2,-38.40674
53:09.3,-34.93408
53:09.3,-30.53394
53:09.3,-26.53857
53:09.3,-24.33984
53:09.3,-24.80322
53:09.3,-27.83789
53:09.3,-32.5564
53:09.4,-37.67285
53:09.4,-42.05078
53:09.4,-45.00684
53:09.4,-46.43311
53:09.4,-46.68213
53:09.4,-46.57959
53:09.5,-47.38354
53:09.5,-50.56348
53:09.5,-57.42749
53:09.5,-68.42236
53:09.5,-82.77319
53:09.5,-98.56787
53:09.5,-113.3887
53:09.6,-125.2412
53:09.6,-133.1738
53:09.6,-137.4382
53:09.6,-139.1934
53:09.6,-140.0168
53:09.6,-141.4749
53:09.7,-144.9004
53:09.7,-151.1453
53:09.7,-160.4932
53:09.7,-172.6089
53:09.7,-186.7068
53:09.7,-201.8362
53:09.8,-217.2026
53:09.8,-232.2935
53:09.8,-246.6221
53:09.8,-259.446
53:09.8,-269.6379
53:09.8,-276.0571
53:09.8,-278.1897
53:09.9,-276.7324
53:09.9,-273.4609
53:09.9,-270.5513
53:09.9,-269.6042
53:09.9,-270.8071
53:09.9,-272.8103
53:10.0,-273.2095
53:10.0,-269.3003
53:10.0,-258.8567
53:10.0,-240.6167
53:10.0,-214.4329
53:10.0,-181.2773
53:10.1,-143.0457
53:10.1,-102.3115
53:10.1,-61.88477
53:10.1,-24.2522
53:10.1,8.931885
53:10.1,37.15625
53:10.1,60.89307
53:10.2,81.09253
53:10.2,98.53101
53:10.2,113.2759
53:10.2,124.6094
53:10.2,131.3445
53:10.2,132.5061
53:10.3,127.9607
53:10.3,118.7603
53:10.3,107.021
53:10.3,95.53516
53:10.3,87.00903
53:10.3,83.33179
53:10.3,84.96509
53:10.4,90.68774
53:10.4,97.84155
53:10.4,103.1555
53:10.4,103.6821
53:10.4,97.65723
53:10.4,84.78735
53:10.5,65.91064
53:10.5,42.34253
53:10.5,15.38574
53:10.5,-13.6875
53:10.5,-43.33301
53:10.5,-71.5188
53:10.5,-95.9917
53:10.6,-115.1348
53:10.6,-128.717
53:10.6,-138.1006
53:10.6,-145.4788
53:10.6,-152.4487
53:10.6,-158.8887
53:10.7,-162.8386
53:10.7,-161.6484
53:10.7,-153.8003
53:10.7,-140.1812
53:10.7,-124.1455
53:10.7,-110.1174
53:10.8,-101.5244
53:10.8,-99.2002
53:10.8,-101.1914
53:10.8,-103.8513
53:10.8,-103.7654
53:10.8,-99.39453
53:10.9,-82.39941
53:10.9,-74.53174
53:10.9,-69.03101
53:10.9,-65.16895
53:10.9,-60.83398
53:10.9,-53.64795
53:11.0,-42.14526
53:11.0,-26.40967
53:11.0,-7.890625
53:11.0,11.49463
53:11.0,30.26563
53:11.0,48.03296
53:11.0,65.40552
53:11.1,83.21777
53:11.1,101.8147
53:11.1,120.5637
53:11.1,138.1633
53:11.1,153.3186
53:11.1,165.3821
53:11.2,174.4817
53:11.2,181.1165
53:11.2,185.5278
53:11.2,187.3101
53:11.2,185.668
53:11.2,180.05
53:11.3,170.7683
53:11.3,159.0657
53:11.3,146.377
53:11.3,133.3599
53:11.3,119.1904
53:11.3,101.8252
53:11.3,79.13452
53:11.4,50.44214
53:11.4,17.3269
53:11.4,-16.78149
53:11.4,-48.2439
53:11.4,-74.91553
53:11.4,-96.92725
53:11.5,-116.0857
53:11.5,-134.1467
53:11.5,-151.3777
53:11.5,-166.1775
53:11.5,-176.1201
53:11.5,-179.5442
53:11.6,-176.5757
53:11.6,-168.9751
53:11.6,-158.8193
53:11.6,-147.3574
53:11.6,-134.564
53:11.6,-119.7874
53:11.6,-102.7905
53:11.7,-84.43286
53:11.7,-66.31274
53:11.7,-49.95068
53:11.7,-35.92798
53:11.7,-23.75342
53:11.7,-12.44751
53:11.8,-1.251465
53:11.8,10.0105
53:11.8,21.021
53:11.8,31.43201
53:11.8,41.18188
53:11.8,50.49695
53:11.8,59.61121
53:11.9,68.56238
53:11.9,77.17688
53:11.9,85.30359
53:11.9,92.98157
53:11.9,100.496
53:12.0,116.1995
53:12.0,124.4374
53:12.0,132.5073
53:12.0,139.8546
53:12.0,145.7129
53:12.0,149.1733
53:12.1,149.4604
53:12.1,146.2616
53:12.1,140.1952
53:12.1,132.8699
53:12.1,126.4623
53:12.1,122.9425
53:12.1,123.3269
53:12.2,127.3907
53:12.2,134.0197
53:12.2,141.7516
53:12.2,149.4147
53:12.2,156.2053
53:12.2,161.5446
53:12.3,164.7981
53:12.3,165.2816
53:12.3,162.4104
53:12.3,156.0245
53:12.3,146.4432
53:12.3,134.302
53:12.3,120.2389
53:12.4,104.629
53:12.4,87.43066
53:12.4,68.16907
53:12.4,46.0531
53:12.4,20.35583
53:12.4,-9.088745
53:12.5,-41.26306
53:12.5,-73.90015
53:12.5,-104.0305
53:12.5,-129.1329
53:12.5,-148.296
53:12.5,-162.6819
53:12.6,-174.8618
53:12.6,-187.3516
53:12.6,-201.1207
53:12.6,-214.8674
53:12.6,-225.4744
53:12.6,-229.2822
53:12.6,-223.6473
53:12.7,-207.9229
53:12.7,-183.6724
53:12.7,-154.1595
53:12.7,-123.3792
53:12.7,-94.9707
53:12.7,-71.14417
53:12.8,-51.98987
53:12.8,-35.24097
53:12.8,-17.02441
53:12.8,6.666992
53:12.8,38.00732
53:12.8,75.87378
53:12.8,115.493
53:12.9,149.7461
53:12.9,171.5591
53:12.9,176.5278
53:12.9,164.6936
53:12.9,140.6372
53:12.9,111.8462
53:13.0,86.17664
53:13.0,69.2146
53:13.0,62.61072
53:13.0,63.89697
53:13.0,67.10205
53:13.1,57.45325
53:13.1,37.04602
53:13.1,8.660522
53:13.1,-21.38477
53:13.1,-45.4281
53:13.1,-57.43152
53:13.1,-55.19873
53:13.2,-41.0929
53:13.2,-20.84766
53:13.2,-1.17749
53:13.2,12.52222
53:13.2,17.49841
53:13.2,13.51172
53:13.3,1.898438
53:13.3,-15.53223
53:13.3,-37.08972
53:13.3,-61.32996
53:13.3,-87.01331
53:13.3,-113.007
53:13.3,-138.52
53:13.4,-163.0994
53:13.4,-186.4894
53:13.4,-208.0874
53:13.4,-226.7028
53:13.4,-240.6343
53:13.4,-248.3538
53:13.5,-249.4034
53:13.5,-244.9749
53:13.5,-237.7736
53:13.5,-230.718
53:13.5,-225.4344
53:13.5,-221.1093
53:13.6,-214.8374
53:13.6,-202.7061
53:13.6,-181.7804
53:13.6,-151.4611
53:13.6,-113.5164
53:13.6,-71.43884
53:13.6,-29.13574
53:13.7,9.639771
53:13.7,41.43274
53:13.7,63.15942
53:13.7,72.89368
53:13.7,70.89441
53:13.7,60.09607
53:13.8,45.4873
53:13.8,32.14148
53:13.8,23.14941
53:13.8,18.65942
53:13.8,16.6604
53:13.8,15.04517
53:13.8,13.3374
53:13.9,12.94092
53:13.9,15.85974
53:13.9,22.99866
53:13.9,33.22607
53:13.9,44.14648
53:13.9,53.6875
53:14.0,61.44324
53:14.0,68.77356
53:14.0,77.49817
53:14.0,88.30493
53:14.0,100.0414
53:14.0,110.3735
53:14.1,116.8612
53:14.1,118.3962
53:14.1,115.5644
53:14.1,110.0771
53:14.1,103.9177
53:14.1,98.38202
53:14.1,93.75732
53:14.2,89.61194
53:14.2,85.41101
53:14.2,80.84015
53:14.2,76.0932
53:14.2,71.67261
53:14.2,68.04059
53:14.3,65.24536
53:14.3,62.86646
53:14.3,60.0835
53:14.3,56.01031
53:14.3,50.07556
53:14.3,42.2475
53:14.3,33.21234
53:14.4,24.2558
53:14.4,17.05634
53:14.4,13.27295
53:14.4,14.09601
53:14.4,19.89929
53:14.4,30.06305
53:14.5,43.14349
53:14.5,57.1991
53:14.5,70.40137
53:14.5,81.41016
53:14.5,89.61859
53:14.5,94.95746
53:14.6,97.66711
53:14.6,97.94958
53:14.6,95.78766
53:14.6,91.00092
53:14.6,83.37518
53:14.6,72.91754
53:14.6,59.97412
53:14.7,45.25537
53:14.7,29.76282
53:14.7,14.55078
53:14.7,0.5495605
53:14.7,-11.66437
53:14.7,-21.91364
53:14.8,-30.45697
53:14.8,-37.78632
53:14.8,-44.50677
53:14.8,-51.15417
53:14.8,-58.12463
53:14.8,-65.58148
53:14.8,-73.4613
53:14.9,-81.57391
53:14.9,-89.66754
53:14.9,-97.55023
53:14.9,-105.0453
53:14.9,-111.8172
53:14.9,-117.2104
53:15.0,-120.2388
53:15.0,-119.8641
53:15.0,-115.4628
53:15.0,-107.3499
53:15.0,-96.83228
53:15.0,-85.86505
53:15.1,-76.33331
53:15.1,-69.31897
53:15.1,-64.73077
53:15.1,-61.56512
53:15.1,-58.52771
53:15.1,-54.75385
53:15.1,-50.12866
53:15.2,-45.17902
53:15.2,-40.61713
53:15.2,-36.96133
53:15.2,-34.33716
53:15.2,-32.573
53:15.2,-31.43304
53:15.3,-30.80109
53:15.3,-30.57559
53:15.3,-30.54672
53:15.3,-30.17535
53:15.3,-28.67532
53:15.3,-25.22406
53:15.3,-19.34064
53:15.4,-11.20584
53:15.4,-1.680115
53:15.4,7.952423
53:15.4,16.40637
53:15.4,22.79648
53:15.4,26.7222
53:15.5,28.1037
53:15.5,26.88084
53:15.5,23.01515
53:15.5,16.64246
53:15.5,8.478104
53:15.5,0.01557922
53:15.6,-6.661865
53:15.6,-9.560944
53:15.6,-7.508224
53:15.6,-0.6073608
53:15.6,9.862053
53:15.6,22.05978
53:15.6,34.30976
53:15.7,45.6003
53:15.7,55.6609
53:15.7,64.62608
53:15.7,72.68143
53:15.7,79.81667
53:15.7,85.77619
53:15.8,90.18047
53:15.8,92.68246
53:15.8,93.04411
53:15.8,91.28337
53:15.8,87.71437
53:15.8,82.94813
53:15.8,77.72421
53:15.9,72.5676
53:15.9,67.4764
53:15.9,61.82588
53:15.9,54.66078
53:15.9,45.27617
53:15.9,33.72754
53:16.0,20.89728
53:16.0,8.044357
53:16.0,-3.844513
53:16.0,-14.54852
53:16.0,-24.59911
53:16.0,-34.92163
53:16.1,-46.41637
53:16.1,-59.79456
53:16.1,-75.45328
53:16.1,-93.30029
53:16.1,-112.291
53:16.1,-129.9045
53:16.1,-142.1487
53:16.2,-144.4419
53:16.2,-133.2943
53:16.2,-107.9769
53:16.2,-71.18811
53:16.2,-28.19516
53:16.2,15.17157
53:16.3,54.59283
53:16.3,88.26025
53:16.3,116.4776
53:16.3,140.3787
53:16.3,160.8004
53:16.3,178.0067
53:16.3,192.203
53:16.4,204.198
53:16.4,215.4416
53:16.4,227.3131
53:16.4,240.0558
53:16.4,252.1884
53:16.4,260.834
53:16.5,262.9662
53:16.5,256.9168
53:16.5,243.1847
53:16.5,224.2224
53:16.5,203.4297
53:16.5,183.9214
53:16.6,167.732
53:16.6,155.7224
53:16.6,147.926
53:16.6,143.9869
53:16.6,143.1781
53:16.6,144.1801
53:16.6,144.8855
53:16.7,142.7623
53:16.7,135.8037
53:16.7,123.7209
53:16.7,108.515
53:16.7,93.91861
53:16.7,83.97107
53:16.8,81.27084
53:16.8,86.05392
53:16.8,96.06464
53:16.8,107.645
53:16.8,117.2244
53:16.8,122.4936
53:16.8,122.6764
53:16.9,117.9829
53:16.9,108.8726
53:16.9,95.56827
53:16.9,78.19379
53:16.9,56.99475
53:16.9,32.58649
53:17.0,6.03363
53:17.0,-21.06033
53:17.0,-47.15862
53:17.0,-71.25107
53:17.0,-93.03606
53:17.0,-112.8091
53:17.1,-130.7074
53:17.1,-146.862
53:17.1,-161.4635
53:17.1,-174.7686
53:17.1,-186.5394
53:17.1,-196.6236
53:17.1,-205.4671
53:17.2,-214.1071
53:17.2,-223.9474
53:17.2,-235.0244
53:17.2,-246.788
53:17.2,-258.3781
53:17.2,-268.8171
53:17.3,-275.9206
53:17.3,-277.8394
53:17.3,-274.4191
53:17.3,-267.4996
53:17.3,-260.5143
53:17.3,-254.474
53:17.3,-248.7864
53:17.4,-241.2083
53:17.4,-228.1458
53:17.4,-204.0323
53:17.4,-165.3115
53:17.4,-113.7198
53:17.4,-56.80932
53:17.5,-5.953068
53:17.5,31.81943
53:17.5,53.84315
53:17.5,61.86695
53:17.5,61.14644
53:17.5,60.62034
53:17.6,68.25658
53:17.6,87.55908
53:17.6,117.3615
53:17.6,153.0332
53:17.6,193.6458
53:17.6,238.3037
53:17.6,284.2057
53:17.7,309.5453
53:17.7,295.35
53:17.7,240.193
53:17.7,161.5831
53:17.7,91.41238
53:17.7,31.72803
53:17.8,-19.40527
53:17.8,-63.85499
53:17.8,-104.1173
53:17.8,-139.1124
53:17.8,-164.056
53:17.8,-173.9041
53:17.8,-166.7749
53:17.9,-145.2354
53:17.9,-116.015
53:17.9,-82.59144
53:17.9,-47.54321
53:17.9,-13.04065
53:17.9,19.28152
53:18.0,49.6554
53:18.0,78.2144
53:18.0,103.5225
53:18.0,122.6803
53:18.0,132.1196
53:18.0,132.7952
53:18.1,127.1442
53:18.1,117.2851
53:18.1,104.5525
53:18.1,90.49887
53:18.1,76.3168
53:18.1,62.34097
53:18.1,48.06786
53:18.2,32.38976
53:18.2,16.6572
53:18.2,2.777008
53:18.2,-7.631805
53:18.2,-13.58009
53:18.2,-14.59826
53:18.3,-11.38174
53:18.3,-6.11586
53:18.3,-1.850662
53:18.3,-1.428764
53:18.3,-4.919899
53:18.3,-9.951416
53:18.3,-12.3856
53:18.4,-7.540482
53:18.4,8.197701
53:18.4,35.46371
53:18.4,70.59355
53:18.4,106.2515
53:18.4,133.3166
53:18.5,144.2257
53:18.5,135.086
53:18.5,106.5882
53:18.5,63.10217
53:18.5,10.58568
53:18.5,-45.33409
53:18.6,-99.99795
53:18.6,-149.1901
53:18.6,-188.3452
53:18.6,-212.5955
53:18.6,-218.1009
53:18.6,-203.7142
53:18.6,-172.2139
53:18.7,-129.8626
53:18.7,-84.5487
53:18.7,-43.41896
53:18.7,-11.06734
53:18.7,11.04114
53:18.7,23.97182
53:18.8,30.16582
53:18.8,32.39529
53:18.8,33.06216
53:18.8,33.82349
53:18.8,35.5341
53:18.8,38.32595
53:18.8,41.81958
53:18.9,45.39179
53:18.9,48.48606
53:18.9,50.68387
53:18.9,51.6314
53:18.9,51.29489
53:18.9,50.27594
53:19.0,50.03212
53:19.0,52.72995
53:19.0,60.51963
53:19.0,74.48731
53:19.0,93.88991
53:19.0,116.0584
53:19.1,137.158
53:19.1,153.5147
53:19.1,162.9251
53:19.1,165.3377
53:19.1,162.4734
53:19.1,156.8128
53:19.1,150.4102
53:19.2,144.1436
53:19.2,137.6794
53:19.2,130.0064
53:19.2,120.16
53:19.2,107.7411
53:19.2,92.94726
53:19.3,76.36357
53:19.3,58.62311
53:19.3,40.2237
53:19.3,21.53743
53:19.3,2.878624
53:19.3,-15.42088
53:19.3,-33.00275
53:19.4,-49.56001
53:19.4,-64.86154
53:19.4,-78.86121
53:19.4,-91.73668
53:19.4,-103.897
53:19.4,-115.8594
53:19.5,-128.0305
53:19.5,-140.2964
53:19.5,-151.8454
53:19.5,-161.2272
53:19.5,-166.7904
53:19.5,-167.3188
53:19.6,-162.403
53:19.6,-152.415
53:19.6,-138.0997
53:19.6,-119.976
53:19.6,-98.12299
53:19.6,-72.34909
53:19.6,-42.65536
53:19.7,-9.726685
53:19.7,25.07581
53:19.7,60.1488
53:19.7,94.26917
53:19.7,126.9869
53:19.7,158.4743
53:19.8,188.9736
53:19.8,218.1564
53:19.8,244.8328
53:19.8,267.0419
53:19.8,282.5883
53:19.8,289.7193
53:19.8,287.6729
53:19.9,276.9658
53:19.9,259.2364
53:19.9,236.7108
53:19.9,211.4833
53:19.9,184.9309
53:19.9,157.4895
53:20.0,128.8107
53:20.0,98.31464
53:20.0,65.68695
53:20.0,31.09424
53:20.0,-4.874695
53:20.0,-41.38745
53:20.1,-77.41718
53:20.1,-111.6275
53:20.1,-142.3983
53:20.1,-168.0597
53:20.1,-187.5278
53:20.1,-200.7983
53:20.1,-209.0513
53:20.2,-214.0617
53:20.2,-217.2972
53:20.2,-219.1608
53:20.2,-218.9171
53:20.2,-215.3785
53:20.2,-207.9747
53:20.3,-197.512
53:20.3,-186.1069
53:20.3,-176.3142
53:20.3,-170.0497
53:20.3,-167.8612
53:20.3,-169.0344
53:20.3,-172.2421
53:20.4,-176.3702
53:20.4,-180.795
53:20.4,-185.2571
53:20.4,-189.4911
53:20.4,-192.938
53:20.4,-194.8117
53:20.5,-194.5538
53:20.5,-192.2465
53:20.5,-188.6926
53:20.5,-185.0574
53:20.5,-182.2405
53:20.5,-180.4402
53:20.6,-179.1494
53:20.6,-177.5212
53:20.6,-174.858
53:20.6,-170.7948
53:20.6,-165.2203
53:20.6,-157.9131
53:20.6,-148.3747
53:20.7,-135.8552
53:20.7,-119.7693
53:20.7,-100.1022
53:20.7,-77.59467
53:20.7,-53.63715
53:20.7,-29.95532
53:20.8,-8.170044
53:20.8,10.48004
53:20.8,25.29712
53:20.8,36.14978
53:20.8,43.34833
53:20.8,47.49707
53:20.8,49.38831
53:20.9,49.81433
53:20.9,49.4845
53:20.9,48.94073
53:20.9,48.56781
53:20.9,48.55823
53:20.9,48.88696
53:21.0,49.30829
53:21.0,49.39471
53:21.0,48.66595
53:21.0,46.79572
53:21.0,43.76489
53:21.0,39.89728
53:21.1,35.65442
53:21.1,31.40649
53:21.1,27.16022
53:21.1,22.48804
53:21.1,16.63513
53:21.1,8.904907
53:21.1,-0.8731079
53:21.2,-11.95804
53:21.2,-22.64212
53:21.2,-30.64578
53:21.2,-33.86404
53:21.2,-31.14307
53:21.2,-22.69693
53:21.3,-9.940704
53:21.3,5.146057
53:21.3,20.7496
53:21.3,35.68362
53:21.3,49.34415
53:21.3,61.36981
53:21.3,71.28305
53:21.4,78.41531
53:21.4,82.2211
53:21.4,82.60782
53:21.4,80.14157
53:21.4,75.88022
53:21.4,70.84769
53:21.5,65.55096
53:21.5,59.88876
53:21.5,53.39188
53:21.5,45.7164
53:21.5,36.94229
53:21.5,27.64609
53:21.6,18.6102
53:21.6,10.52928
53:21.6,3.644455
53:21.6,-2.406616
53:21.6,-8.41655
53:21.6,-15.20273
53:21.6,-23.25175
53:21.7,-32.65483
53:21.7,-43.16124
53:21.7,-54.31102
53:21.7,-65.33539
53:21.7,-75.10321
53:21.7,-82.15686
53:21.8,-84.85873
53:21.8,-81.73877
53:21.8,-72.05873
53:21.8,-56.29576
53:21.8,-36.1752
53:21.8,-14.16602
53:21.8,7.654457
53:21.9,27.84789
53:21.9,45.53823
53:21.9,60.0314
53:21.9,70.85343
53:21.9,77.80939
53:21.9,81.13806
53:22.0,81.61371
53:22.0,80.5298
53:22.0,79.97661
53:22.0,81.62906
53:22.0,85.61773
53:22.0,90.38782
53:22.1,93.97733
53:22.1,95.1239
53:22.1,93.72067
53:22.1,90.59684
53:22.1,86.93003
53:22.1,84.7785
53:22.1,85.49585
53:22.2,88.59765
53:22.2,91.91128
53:22.2,93.2963
53:22.2,91.83556
53:22.2,87.82013
53:22.2,81.97906
53:22.3,74.9983
53:22.3,69.11743
53:22.3,67.07228
53:22.3,70.8847
53:22.3,80.99564
53:22.3,96.74705
53:22.3,116.1115
53:22.4,135.2682
53:22.4,149.0183
53:22.4,144.403
53:22.4,114.6387
53:22.4,66.52708
53:22.4,17.07989
53:22.5,-19.91968
53:22.5,-41.06069
53:22.5,-51.81656
53:22.5,-60.12274
53:22.5,-70.52856
53:22.5,-83.79688
53:22.6,-96.7018
53:22.6,-105.6534
53:22.6,-108.0708
53:22.6,-105.3266
53:22.6,-100.6743
53:22.6,-97.09192
53:22.6,-95.96498
53:22.7,-96.88667
53:22.7,-98.44292
53:22.7,-98.35501
53:22.7,-95.99257
53:22.7,-93.93713
53:22.7,-97.33322
53:22.8,-110.2212
53:22.8,-132.6056
53:22.8,-159.6511
53:22.8,-183.5522
53:22.8,-196.8396
53:22.8,-194.4573
53:22.8,-175.6513
53:22.9,-143.8838
53:22.9,-104.9547
53:22.9,-64.09505
53:22.9,-24.61924
53:22.9,11.78851
53:22.9,44.05023
53:23.0,71.23483
53:23.0,93.35518
53:23.0,111.5627
53:23.0,127.7798
53:23.0,143.4461
53:23.0,158.6951
53:23.1,171.9592
53:23.1,180.5882
53:23.1,182.1714
53:23.1,176.0199
53:23.1,163.798
53:23.1,148.8785
53:23.1,134.9921
53:23.2,124.7945
53:23.2,119.3501
53:23.2,118.2497
53:23.2,120.0952
53:23.2,122.9768
53:23.2,124.9764
53:23.3,124.4738
53:23.3,120.3346
53:23.3,112.0395
53:23.3,99.57463
53:23.3,83.38217
53:23.3,64.33483
53:23.3,43.74928
53:23.4,23.36509
53:23.4,5.241913
53:23.4,-8.613434
53:23.4,-16.71489
53:23.4,-18.52363
53:23.4,-14.73047
53:23.5,-7.033447
53:23.5,2.390686
53:23.5,11.46257
53:23.5,18.7888
53:23.5,23.80135
53:23.5,26.51254
53:23.6,27.07278
53:23.6,25.44778
53:23.6,21.33535
53:23.6,14.54341
53:23.6,5.272396
53:23.6,-5.780617
53:23.6,-17.63027
53:23.7,-29.472
53:23.7,-40.98634
53:23.7,-52.35151
53:23.7,-63.91475
53:23.7,-75.83466
53:23.7,-87.90392
53:23.8,-99.62144
53:23.8,-110.4994
53:23.8,-120.2065
53:23.8,-128.6023
53:23.8,-135.6951
53:23.8,-141.5155
53:23.8,-146.2303
53:23.9,-150.2839
53:23.9,-154.3564
53:23.9,-159.0891
53:23.9,-164.5822
53:23.9,-170.0108
53:23.9,-173.6962
53:24.0,-173.631
53:24.0,-168.2346
53:24.0,-157.0316
53:24.0,-140.7672
53:24.0,-121.0601
53:24.0,-99.83932
53:24.1,-78.78371
53:24.1,-59.09554
53:24.1,-41.56278
53:24.1,-26.73392
53:24.1,-15.05129
53:24.1,-6.827332
53:24.1,-2.067245
53:24.2,-0.3662567
53:24.2,-0.8819885
53:24.2,-2.635048
53:24.2,-4.765762
53:24.2,-6.866409
53:24.2,-9.037781
53:24.3,-11.65659
53:24.3,-15.01079
53:24.3,-18.94713
53:24.3,-22.75415
53:24.3,-25.37645
53:24.3,-25.87839
53:24.3,-23.82848
53:24.4,-19.56262
53:24.4,-14.04474
53:24.4,-8.54422
53:24.4,-4.245956
53:24.4,-1.836426
53:24.4,-1.294769
53:24.5,-1.737976
53:24.5,-1.527878
53:24.5,1.425079
53:24.5,9.071625
53:24.5,22.65274
53:24.5,42.20227
53:24.6,66.53308
53:24.6,93.60068
53:24.6,121.1485
53:24.6,147.3389
53:24.6,170.9744
53:24.6,191.53
53:24.6,208.8351
53:24.7,222.8655
53:24.7,233.6638
53:24.7,241.4148
53:24.7,246.5191
53:24.7,249.4803
53:24.7,250.6146
53:24.8,249.9015
53:24.8,247.0655
53:24.8,241.8239
53:24.8,234.3373
53:24.8,225.3681
53:24.8,216.1842
53:24.8,207.9589
53:24.9,201.3041
53:24.9,195.8502
53:24.9,190.1985
53:24.9,182.2611
53:24.9,169.6113
53:24.9,149.8148
53:25.0,120.6967
53:25.0,80.90552
53:25.0,30.76411
53:25.0,-26.80536
53:25.0,-85.89316
53:25.0,-138.4461
53:25.1,-176.2431
53:25.1,-193.4967
53:25.1,-188.8208
53:25.1,-165.733
53:25.1,-131.443
53:25.1,-94.30618
53:25.1,-61.26195
53:25.2,-36.21979
53:25.2,-19.98218
53:25.2,-11.4455
53:25.2,-9.105545
53:25.2,-12.06651
53:25.2,-20.16837
53:25.3,-33.29233
53:25.3,-50.57487
53:25.3,-70.1106
53:25.3,-89.30664
53:25.3,-105.77
53:25.3,-118.0527
53:25.3,-126.1936
53:25.4,-131.2965
53:25.4,-134.7693
53:25.4,-137.5412
53:25.4,-139.7399
53:25.4,-140.9786
53:25.4,-141.0368
53:25.5,-140.4137
53:25.5,-140.3662
53:25.5,-142.5301
53:25.5,-148.0378
53:25.5,-156.7822
53:25.5,-167.0862
53:25.6,-175.9316
53:25.6,-179.8768
53:25.6,-176.1852
53:25.6,-163.8029
53:25.6,-143.7006
53:25.6,-118.4347
53:25.6,-91.11726
53:25.7,-64.41807
53:25.7,-39.81306
53:25.7,-17.64348
53:25.7,2.434237
53:25.7,20.83529
53:25.7,37.64711
53:25.8,52.69432
53:25.8,65.73151
53:25.8,76.74001
53:25.8,85.88892
53:25.8,93.31207
53:25.8,98.89734
53:25.8,102.3047
53:25.9,103.1771
53:25.9,101.444
53:25.9,97.42118
53:25.9,91.75281
53:25.9,85.22258
53:25.9,78.5
53:26.0,71.97318
53:26.0,65.73811
53:26.0,59.62624
53:26.0,53.33633
53:26.0,46.5173
53:26.0,38.81015
53:26.1,29.84325
53:26.1,19.3492
53:26.1,7.364899
53:26.1,-5.432816
53:26.1,-17.56081
53:26.1,-26.72424
53:26.1,-30.34789
53:26.2,-26.33119
53:26.2,-13.86132
53:26.2,6.110458
53:26.2,31.10255
53:26.2,57.83434
53:26.2,83.20271
53:26.3,104.9876
53:26.3,122.0425
53:26.3,134.0564
53:26.3,141.1707
53:26.3,143.7455
53:26.3,142.3867
53:26.3,138.0013
53:26.4,124.9632
53:26.4,118.7298
53:26.4,113.681
53:26.4,109.8251
53:26.4,106.6337
53:26.5,103.2504
53:26.5,98.8848
53:26.5,93.00301
53:26.5,85.45136
53:26.5,76.39348
53:26.5,66.16499
53:26.6,55.14029
53:26.6,43.62466
53:26.6,31.91729
53:26.6,20.23728
53:26.6,8.717865
53:26.6,-2.54055
53:26.6,-13.35226
53:26.7,-23.23969
53:26.7,-31.24723
53:26.7,-36.04102
53:26.7,-36.24974
53:26.7,-31.06805
53:26.7,-20.83917
53:26.8,-7.193726
53:26.8,7.354141
53:26.8,20.29675
53:26.8,30.02225
53:26.8,36.23546
53:26.8,39.74675
53:26.8,41.74606
53:26.9,42.97835
53:26.9,43.40936
53:26.9,42.45486
53:26.9,39.55215
53:26.9,34.6557
53:26.9,28.38004
53:27.0,21.60513
53:27.0,14.9938
53:27.0,8.628448
53:27.0,2.084534
53:27.0,-5.128845
53:27.0,-13.08929
53:27.1,-21.29645
53:27.1,-28.92117
53:27.1,-35.26254
53:27.1,-40.12943
53:27.1,-43.98956
53:27.1,-47.68613
53:27.1,-52.07663
53:27.2,-57.71054
53:27.2,-64.68631
53:27.2,-72.72253
53:27.2,-81.24295
53:27.2,-89.53473
53:27.2,-96.8385
53:27.3,-102.4812
53:27.3,-105.9644
53:27.3,-107.0693
53:27.3,-105.8741
53:27.3,-102.7127
53:27.3,-98.0824
53:27.3,-92.4931
53:27.4,-86.44202
53:27.4,-80.35931
53:27.4,-74.60272
53:27.4,-69.42004
53:27.4,-64.93652
53:27.4,-61.16284
53:27.5,-58.08484
53:27.5,-55.78265
53:27.5,-54.42175
53:27.5,-54.21582
53:27.5,-57.37402
53:27.6,-60.17529
53:27.6,-63.09253
53:27.6,-65.66968
53:27.6,-67.65741
53:27.6,-69.17651
53:27.6,-70.56702
53:27.6,-72.26953
53:27.7,-74.60834
53:27.7,-77.70044
53:27.7,-81.52368
53:27.7,-85.9903
53:27.7,-91.13855
53:27.7,-97.17688
53:27.8,-104.3072
53:27.8,-112.4095
53:27.8,-120.7327
53:27.8,-127.8915
53:27.8,-132.2135
53:27.8,-132.3717
53:27.8,-127.8981
53:27.9,-119.3995
53:27.9,-108.2285
53:27.9,-95.94287
53:27.9,-83.80188
53:27.9,-72.50684
53:27.9,-62.40778
53:28.0,-53.76172
53:28.0,-46.96649
53:28.0,-42.49701
53:28.0,-40.73529
53:28.0,-41.67206
53:28.0,-44.86755
53:28.1,-49.59406
53:28.1,-55.05334
53:28.1,-60.68561
53:28.1,-66.19171
53:28.1,-71.51489
53:28.1,-76.55658
53:28.1,-80.97284
53:28.2,-84.0368
53:28.2,-84.79495
53:28.2,-82.5043
53:28.2,-77.04361
53:28.2,-69.10385
53:28.2,-60.02438
53:28.3,-51.2551
53:28.3,-43.81235
53:28.3,-38.04419
53:28.3,-33.63437
53:28.3,-29.85748
53:28.3,-25.77203
53:28.3,-20.35187
53:28.4,-12.70905
53:28.4,-2.270111
53:28.4,10.91116
53:28.4,26.02402
53:28.4,41.71097
53:28.4,56.43408
53:28.5,69.00339
53:28.5,78.79678
53:28.5,85.70178
53:28.5,89.81059
53:28.5,91.18706
53:28.5,89.85837
53:28.6,86.01164
53:28.6,80.23694
53:28.6,73.46988
53:28.6,66.75931
53:28.6,60.85101
53:28.6,55.99171
53:28.6,51.9129
53:28.7,48.11863
53:28.7,44.16385
53:28.7,39.8167
53:28.7,35.16169
53:28.7,30.57073
53:28.8,23.40374
53:28.8,21.30011
53:28.8,19.88492
53:28.8,18.4356
53:28.8,16.04168
53:28.8,11.98866
53:28.8,6.123444
53:28.9,-0.912365
53:28.9,-7.639385
53:28.9,-12.07759
53:28.9,-12.20016
53:28.9,-6.514236
53:28.9,5.441299
53:29.0,22.92541
53:29.0,44.12872
53:29.0,66.69122
53:29.0,88.38692
53:29.0,107.7178
